
Filename:
	C:\Specimens\Pavlukova\2013\July\#2.raw

File Created:
	July 04, 2013 - 05:23 PM

Specimen Id:
	

Specimen Name:
	

Specimen Description:
	

Comment:
Scan Type: 2Theta Scan
Start Angle: 30 deg.
Stop Angle: 105 deg.
Num Points: 1501
Step Size: 0.05 deg.
Scan Rate: 1.000000
Scan Mode: Step
Wavelength: 1.540562
\Kalpha1: 1.540562	\Kalpha2: 1.544390	\Kbeta: 1.392218

Optics:
		Detector:
			 Type: Thin Film Attachment
		Tube: 
			 Type: Parabolic Mirror


Datas:
 Pos [deg]       Rate [CPS]      ESD [-]

Range 1 ---> Iteration 1
  30.000         19.33	     7.616
  30.050         22.33	     8.185
  30.100         24.67	     8.602
  30.150         25.67	     8.775
  30.200         24.33	     8.544
  30.250         23.00	     8.307
  30.300         23.33	     8.367
  30.350         25.33	     8.718
  30.400         25.00	     8.660
  30.450         22.33	     8.185
  30.500         26.33	     8.888
  30.550         26.33	     8.888
  30.600         19.00	     7.550
  30.650         22.67	     8.246
  30.700         24.00	     8.485
  30.750         27.67	     9.110
  30.800         26.33	     8.888
  30.850         23.33	     8.367
  30.900         16.67	     7.071
  30.950         23.67	     8.426
  31.000         26.00	     8.832
  31.050         28.33	     9.220
  31.100         21.67	     8.062
  31.150         26.00	     8.832
  31.200         31.33	     9.695
  31.250         25.00	     8.660
  31.300         27.67	     9.110
  31.350         30.67	     9.592
  31.400         27.33	     9.055
  31.450         25.33	     8.718
  31.500         29.00	     9.327
  31.550         23.00	     8.307
  31.600         24.33	     8.544
  31.650         28.33	     9.220
  31.700         23.33	     8.367
  31.750         19.67	     7.681
  31.800         23.33	     8.367
  31.850         31.67	     9.747
  31.900         20.33	     7.810
  31.950         20.67	     7.874
  32.000         23.00	     8.307
  32.050         23.67	     8.426
  32.100         21.00	     7.937
  32.150         21.00	     7.937
  32.200         28.00	     9.165
  32.250         26.00	     8.832
  32.300         28.33	     9.220
  32.350         25.00	     8.660
  32.400         29.67	     9.434
  32.450         29.33	     9.381
  32.500         31.33	     9.695
  32.550         34.00	    10.100
  32.600         36.33	    10.440
  32.650         41.00	    11.091
  32.700         54.33	    12.767
  32.750         55.00	    12.845
  32.800         61.67	    13.601
  32.850         62.33	    13.675
  32.900         73.33	    14.832
  32.950         64.67	    13.928
  33.000         61.67	    13.601
  33.050         53.33	    12.649
  33.100         54.33	    12.767
  33.150         50.67	    12.329
  33.200         42.67	    11.314
  33.250         51.67	    12.450
  33.300         46.33	    11.790
  33.350         67.00	    14.177
  33.400         62.67	    13.711
  33.450         59.00	    13.304
  33.500         63.33	    13.784
  33.550         65.00	    13.964
  33.600         64.00	    13.856
  33.650         64.33	    13.892
  33.700         63.00	    13.748
  33.750         62.00	    13.638
  33.800         53.67	    12.689
  33.850         52.33	    12.530
  33.900         54.33	    12.767
  33.950         62.33	    13.675
  34.000         68.00	    14.283
  34.050         62.33	    13.675
  34.100         57.00	    13.077
  34.150         55.00	    12.845
  34.200         59.67	    13.379
  34.250         56.33	    13.000
  34.300         58.00	    13.191
  34.350         62.67	    13.711
  34.400         65.00	    13.964
  34.450         57.33	    13.115
  34.500         85.33	    16.000
  34.550        100.33	    17.349
  34.600        133.00	    19.975
  34.650        167.33	    22.405
  34.700        224.00	    25.923
  34.750        324.67	    31.209
  34.800        435.33	    36.139
  34.850        548.33	    40.559
  34.900        687.33	    45.409
  34.950        744.67	    47.265
  35.000        794.33	    48.816
  35.050        796.33	    48.877
  35.100        761.67	    47.802
  35.150        705.67	    46.011
  35.200        624.00	    43.267
  35.250        527.00	    39.762
  35.300        386.00	    34.029
  35.350        306.33	    30.315
  35.400        241.00	    26.889
  35.450        201.00	    24.556
  35.500        163.33	    22.136
  35.550        156.00	    21.633
  35.600        150.67	    21.260
  35.650        132.33	    19.925
  35.700        133.67	    20.025
  35.750        118.33	    18.841
  35.800        122.67	    19.183
  35.850        102.33	    17.521
  35.900         92.67	    16.673
  35.950         83.33	    15.811
  36.000         61.33	    13.565
  36.050         79.67	    15.460
  36.100         65.00	    13.964
  36.150         65.67	    14.036
  36.200         66.33	    14.107
  36.250         59.33	    13.342
  36.300         71.67	    14.663
  36.350         75.33	    15.033
  36.400         61.00	    13.528
  36.450         66.00	    14.071
  36.500         71.00	    14.595
  36.550         69.33	    14.422
  36.600         75.00	    15.000
  36.650         72.00	    14.697
  36.700         77.00	    15.199
  36.750         80.00	    15.492
  36.800         75.33	    15.033
  36.850         75.67	    15.067
  36.900         68.33	    14.318
  36.950         68.00	    14.283
  37.000         72.67	    14.765
  37.050         73.33	    14.832
  37.100         78.67	    15.362
  37.150         75.00	    15.000
  37.200         90.33	    16.462
  37.250         98.67	    17.205
  37.300        104.00	    17.664
  37.350        103.00	    17.578
  37.400         96.33	    17.000
  37.450        107.67	    17.972
  37.500        119.00	    18.894
  37.550        105.00	    17.748
  37.600        104.33	    17.692
  37.650        106.00	    17.833
  37.700        112.67	    18.385
  37.750        122.33	    19.157
  37.800        139.33	    20.445
  37.850        159.67	    21.886
  37.900        185.00	    23.558
  37.950        244.67	    27.092
  38.000        302.00	    30.100
  38.050        378.00	    33.675
  38.100        449.00	    36.701
  38.150        562.67	    41.085
  38.200        661.00	    44.531
  38.250        697.67	    45.749
  38.300        696.00	    45.695
  38.350        717.33	    46.390
  38.400        704.00	    45.957
  38.450        687.67	    45.420
  38.500        650.33	    44.170
  38.550        580.00	    41.713
  38.600        529.67	    39.862
  38.650        460.33	    37.162
  38.700        401.33	    34.699
  38.750        406.67	    34.928
  38.800        437.67	    36.235
  38.850        550.67	    40.645
  38.900        656.67	    44.385
  38.950        807.00	    49.204
  39.000        890.00	    51.672
  39.050       1000.67	    54.791
  39.100       1004.00	    54.882
  39.150       1041.00	    55.884
  39.200       1061.67	    56.436
  39.250        982.00	    54.277
  39.300        848.67	    50.458
  39.350        648.67	    44.113
  39.400        502.67	    38.833
  39.450        361.33	    32.924
  39.500        327.33	    31.337
  39.550        323.33	    31.145
  39.600        392.00	    34.293
  39.650        458.33	    37.081
  39.700        560.00	    40.988
  39.750        737.67	    47.043
  39.800       1010.33	    55.055
  39.850       1358.67	    63.844
  39.900       1792.00	    73.321
  39.950       2251.67	    82.189
  40.000       2447.00	    85.680
  40.050       2671.33	    89.521
  40.100       2627.67	    88.786
  40.150       2677.67	    89.627
  40.200       2519.00	    86.931
  40.250       2241.33	    82.000
  40.300       1780.67	    73.089
  40.350       1345.33	    63.530
  40.400        977.33	    54.148
  40.450        712.00	    46.217
  40.500        527.00	    39.762
  40.550        396.00	    34.467
  40.600        289.67	    29.479
  40.650        248.00	    27.276
  40.700        206.67	    24.900
  40.750        169.67	    22.561
  40.800        166.67	    22.361
  40.850        133.33	    20.000
  40.900        127.67	    19.570
  40.950        112.00	    18.330
  41.000        102.33	    17.521
  41.050         97.00	    17.059
  41.100         92.00	    16.613
  41.150         83.67	    15.843
  41.200         95.33	    16.912
  41.250         75.33	    15.033
  41.300         83.00	    15.780
  41.350         76.33	    15.133
  41.400         63.67	    13.820
  41.450         74.33	    14.933
  41.500         76.33	    15.133
  41.550         74.67	    14.967
  41.600         85.67	    16.031
  41.650        106.33	    17.861
  41.700        122.00	    19.131
  41.750        151.00	    21.284
  41.800        174.67	    22.891
  41.850        195.67	    24.228
  41.900        196.00	    24.249
  41.950        182.33	    23.388
  42.000        171.00	    22.650
  42.050        186.67	    23.664
  42.100        152.67	    21.401
  42.150        135.33	    20.149
  42.200        112.00	    18.330
  42.250         88.00	    16.248
  42.300         81.00	    15.588
  42.350         55.67	    12.923
  42.400         51.67	    12.450
  42.450         51.67	    12.450
  42.500         57.00	    13.077
  42.550         49.33	    12.166
  42.600         48.00	    12.000
  42.650         46.67	    11.832
  42.700         47.67	    11.958
  42.750         46.33	    11.790
  42.800         41.33	    11.136
  42.850         45.67	    11.705
  42.900         48.67	    12.083
  42.950         39.33	    10.863
  43.000         44.67	    11.576
  43.050         34.33	    10.149
  43.100         40.67	    11.045
  43.150         37.33	    10.583
  43.200         35.00	    10.247
  43.250         28.67	     9.274
  43.300         33.67	    10.050
  43.350         34.33	    10.149
  43.400         37.00	    10.536
  43.450         30.00	     9.487
  43.500         36.67	    10.488
  43.550         29.00	     9.327
  43.600         30.00	     9.487
  43.650         34.00	    10.100
  43.700         30.33	     9.539
  43.750         33.67	    10.050
  43.800         27.00	     9.000
  43.850         32.00	     9.798
  43.900         30.00	     9.487
  43.950         27.67	     9.110
  44.000         22.00	     8.124
  44.050         30.67	     9.592
  44.100         31.00	     9.644
  44.150         26.33	     8.888
  44.200         28.67	     9.274
  44.250         34.00	    10.100
  44.300         36.67	    10.488
  44.350         36.00	    10.392
  44.400         37.67	    10.630
  44.450         34.67	    10.198
  44.500         44.00	    11.489
  44.550         39.33	    10.863
  44.600         34.67	    10.198
  44.650         33.33	    10.000
  44.700         41.33	    11.136
  44.750         44.33	    11.533
  44.800         44.33	    11.533
  44.850         48.67	    12.083
  44.900         51.67	    12.450
  44.950         45.33	    11.662
  45.000         51.00	    12.369
  45.050         47.00	    11.874
  45.100         47.00	    11.874
  45.150         50.33	    12.288
  45.200         51.00	    12.369
  45.250         38.67	    10.770
  45.300         38.33	    10.724
  45.350         45.67	    11.705
  45.400         38.67	    10.770
  45.450         38.00	    10.677
  45.500         34.33	    10.149
  45.550         38.00	    10.677
  45.600         31.67	     9.747
  45.650         35.00	    10.247
  45.700         34.67	    10.198
  45.750         33.67	    10.050
  45.800         34.33	    10.149
  45.850         28.00	     9.165
  45.900         34.00	    10.100
  45.950         35.33	    10.296
  46.000         30.00	     9.487
  46.050         33.00	     9.950
  46.100         34.67	    10.198
  46.150         37.00	    10.536
  46.200         36.33	    10.440
  46.250         43.67	    11.446
  46.300         44.00	    11.489
  46.350         41.00	    11.091
  46.400         53.67	    12.689
  46.450         58.00	    13.191
  46.500         63.33	    13.784
  46.550         79.67	    15.460
  46.600         79.33	    15.427
  46.650         91.00	    16.523
  46.700        109.33	    18.111
  46.750        127.33	    19.545
  46.800        160.67	    21.954
  46.850        201.33	    24.576
  46.900        248.33	    27.295
  46.950        295.67	    29.783
  47.000        367.33	    33.196
  47.050        422.33	    35.595
  47.100        471.00	    37.590
  47.150        451.33	    36.797
  47.200        451.00	    36.783
  47.250        441.00	    36.373
  47.300        381.00	    33.808
  47.350        333.67	    31.639
  47.400        263.67	    28.125
  47.450        189.00	    23.812
  47.500        133.00	    19.975
  47.550         89.33	    16.371
  47.600         68.67	    14.353
  47.650         47.67	    11.958
  47.700         38.00	    10.677
  47.750         32.00	     9.798
  47.800         34.67	    10.198
  47.850         26.00	     8.832
  47.900         26.00	     8.832
  47.950         29.00	     9.327
  48.000         26.00	     8.832
  48.050         27.67	     9.110
  48.100         26.33	     8.888
  48.150         23.33	     8.367
  48.200         18.00	     7.348
  48.250         22.67	     8.246
  48.300         22.00	     8.124
  48.350         19.00	     7.550
  48.400         21.00	     7.937
  48.450         18.00	     7.348
  48.500         20.00	     7.746
  48.550         18.00	     7.348
  48.600         20.33	     7.810
  48.650         17.00	     7.141
  48.700         19.00	     7.550
  48.750         16.33	     7.000
  48.800         19.67	     7.681
  48.850         19.67	     7.681
  48.900         13.33	     6.325
  48.950         18.33	     7.416
  49.000         20.67	     7.874
  49.050         17.67	     7.280
  49.100         18.33	     7.416
  49.150         19.00	     7.550
  49.200         19.00	     7.550
  49.250         16.00	     6.928
  49.300         19.33	     7.616
  49.350         13.67	     6.403
  49.400         16.67	     7.071
  49.450         16.33	     7.000
  49.500         15.67	     6.856
  49.550         17.33	     7.211
  49.600         17.33	     7.211
  49.650         16.33	     7.000
  49.700         19.67	     7.681
  49.750         14.67	     6.633
  49.800         21.67	     8.062
  49.850         15.33	     6.782
  49.900         22.33	     8.185
  49.950         18.33	     7.416
  50.000         17.67	     7.280
  50.050         17.33	     7.211
  50.100         18.67	     7.483
  50.150         14.00	     6.481
  50.200         18.00	     7.348
  50.250         21.33	     8.000
  50.300         20.33	     7.810
  50.350         25.33	     8.718
  50.400         14.00	     6.481
  50.450         26.33	     8.888
  50.500         21.67	     8.062
  50.550         22.33	     8.185
  50.600         23.33	     8.367
  50.650         22.00	     8.124
  50.700         28.33	     9.220
  50.750         22.67	     8.246
  50.800         24.33	     8.544
  50.850         22.33	     8.185
  50.900         22.00	     8.124
  50.950         19.00	     7.550
  51.000         17.67	     7.280
  51.050         16.67	     7.071
  51.100         19.67	     7.681
  51.150         21.33	     8.000
  51.200         22.67	     8.246
  51.250         19.00	     7.550
  51.300         18.67	     7.483
  51.350         21.67	     8.062
  51.400         18.00	     7.348
  51.450         19.67	     7.681
  51.500         23.33	     8.367
  51.550         26.00	     8.832
  51.600         20.00	     7.746
  51.650         29.00	     9.327
  51.700         23.00	     8.307
  51.750         20.00	     7.746
  51.800         26.67	     8.944
  51.850         29.67	     9.434
  51.900         32.33	     9.849
  51.950         32.67	     9.899
  52.000         38.00	    10.677
  52.050         37.67	    10.630
  52.100         39.00	    10.817
  52.150         37.67	    10.630
  52.200         33.67	    10.050
  52.250         34.67	    10.198
  52.300         36.67	    10.488
  52.350         40.67	    11.045
  52.400         39.00	    10.817
  52.450         62.00	    13.638
  52.500         67.67	    14.248
  52.550         80.33	    15.524
  52.600         94.00	    16.793
  52.650        113.33	    18.439
  52.700        143.00	    20.712
  52.750        155.33	    21.587
  52.800        178.00	    23.108
  52.850        197.67	    24.352
  52.900        222.67	    25.846
  52.950        200.00	    24.495
  53.000        211.33	    25.179
  53.050        182.67	    23.409
  53.100        176.67	    23.022
  53.150        159.33	    21.863
  53.200        143.67	    20.761
  53.250        116.00	    18.655
  53.300         92.00	    16.613
  53.350         67.33	    14.213
  53.400         50.00	    12.247
  53.450         44.00	    11.489
  53.500         39.67	    10.909
  53.550         37.00	    10.536
  53.600         37.33	    10.583
  53.650         27.00	     9.000
  53.700         35.67	    10.344
  53.750         28.67	     9.274
  53.800         28.33	     9.220
  53.850         21.67	     8.062
  53.900         27.00	     9.000
  53.950         35.67	    10.344
  54.000         31.33	     9.695
  54.050         31.67	     9.747
  54.100         40.33	    11.000
  54.150         36.33	    10.440
  54.200         48.33	    12.042
  54.250         47.33	    11.916
  54.300         54.33	    12.767
  54.350         49.67	    12.207
  54.400         60.33	    13.454
  54.450         52.33	    12.530
  54.500         41.67	    11.180
  54.550         39.00	    10.817
  54.600         28.00	     9.165
  54.650         21.00	     7.937
  54.700         31.33	     9.695
  54.750         20.33	     7.810
  54.800         22.67	     8.246
  54.850         16.33	     7.000
  54.900         22.00	     8.124
  54.950         17.33	     7.211
  55.000         17.33	     7.211
  55.050         15.33	     6.782
  55.100         14.00	     6.481
  55.150         14.33	     6.557
  55.200         21.67	     8.062
  55.250         15.33	     6.782
  55.300         15.67	     6.856
  55.350         18.67	     7.483
  55.400         14.00	     6.481
  55.450         19.33	     7.616
  55.500         14.00	     6.481
  55.550         15.33	     6.782
  55.600         15.33	     6.782
  55.650         15.00	     6.708
  55.700         17.67	     7.280
  55.750         16.00	     6.928
  55.800         16.33	     7.000
  55.850         16.00	     6.928
  55.900         15.33	     6.782
  55.950         19.00	     7.550
  56.000         12.00	     6.000
  56.050         13.67	     6.403
  56.100         18.33	     7.416
  56.150         16.67	     7.071
  56.200         16.67	     7.071
  56.250         18.67	     7.483
  56.300         18.33	     7.416
  56.350         16.00	     6.928
  56.400         15.67	     6.856
  56.450         12.33	     6.083
  56.500         13.33	     6.325
  56.550         17.33	     7.211
  56.600         15.00	     6.708
  56.650         18.00	     7.348
  56.700         15.33	     6.782
  56.750         11.33	     5.831
  56.800         15.67	     6.856
  56.850         18.33	     7.416
  56.900         12.00	     6.000
  56.950         13.33	     6.325
  57.000         18.33	     7.416
  57.050         15.33	     6.782
  57.100         16.67	     7.071
  57.150         19.33	     7.616
  57.200         17.00	     7.141
  57.250         15.67	     6.856
  57.300         15.00	     6.708
  57.350         17.67	     7.280
  57.400         17.00	     7.141
  57.450         12.67	     6.164
  57.500         19.00	     7.550
  57.550         18.67	     7.483
  57.600         14.00	     6.481
  57.650         11.00	     5.745
  57.700         20.00	     7.746
  57.750         13.00	     6.245
  57.800         15.00	     6.708
  57.850         15.00	     6.708
  57.900         16.00	     6.928
  57.950         22.33	     8.185
  58.000         16.67	     7.071
  58.050         16.67	     7.071
  58.100         15.00	     6.708
  58.150         17.00	     7.141
  58.200         15.00	     6.708
  58.250         17.33	     7.211
  58.300         20.33	     7.810
  58.350         15.67	     6.856
  58.400         17.67	     7.280
  58.450         20.33	     7.810
  58.500         18.33	     7.416
  58.550         20.67	     7.874
  58.600         20.00	     7.746
  58.650         16.33	     7.000
  58.700         18.00	     7.348
  58.750         17.67	     7.280
  58.800         21.67	     8.062
  58.850         18.33	     7.416
  58.900         20.00	     7.746
  58.950         17.00	     7.141
  59.000         17.00	     7.141
  59.050         17.33	     7.211
  59.100         18.33	     7.416
  59.150         15.00	     6.708
  59.200         22.67	     8.246
  59.250         23.00	     8.307
  59.300         19.33	     7.616
  59.350         22.67	     8.246
  59.400         19.67	     7.681
  59.450         20.67	     7.874
  59.500         23.00	     8.307
  59.550         28.67	     9.274
  59.600         28.00	     9.165
  59.650         34.33	    10.149
  59.700         33.00	     9.950
  59.750         44.33	    11.533
  59.800         53.00	    12.610
  59.850         48.67	    12.083
  59.900         43.67	    11.446
  59.950         51.00	    12.369
  60.000         43.33	    11.402
  60.050         44.33	    11.533
  60.100         48.00	    12.000
  60.150         40.33	    11.000
  60.200         36.67	    10.488
  60.250         28.67	     9.274
  60.300         31.67	     9.747
  60.350         33.00	     9.950
  60.400         27.33	     9.055
  60.450         23.00	     8.307
  60.500         28.33	     9.220
  60.550         33.33	    10.000
  60.600         27.67	     9.110
  60.650         24.67	     8.602
  60.700         19.33	     7.616
  60.750         22.00	     8.124
  60.800         23.33	     8.367
  60.850         25.33	     8.718
  60.900         20.00	     7.746
  60.950         21.00	     7.937
  61.000         22.00	     8.124
  61.050         18.00	     7.348
  61.100         24.33	     8.544
  61.150         24.00	     8.485
  61.200         21.67	     8.062
  61.250         18.67	     7.483
  61.300         22.67	     8.246
  61.350         23.67	     8.426
  61.400         20.33	     7.810
  61.450         23.00	     8.307
  61.500         23.00	     8.307
  61.550         24.67	     8.602
  61.600         23.33	     8.367
  61.650         25.67	     8.775
  61.700         31.67	     9.747
  61.750         31.33	     9.695
  61.800         29.33	     9.381
  61.850         35.33	    10.296
  61.900         33.33	    10.000
  61.950         36.00	    10.392
  62.000         35.00	    10.247
  62.050         29.67	     9.434
  62.100         43.00	    11.358
  62.150         42.00	    11.225
  62.200         52.67	    12.570
  62.250         47.67	    11.958
  62.300         57.67	    13.153
  62.350         72.00	    14.697
  62.400         89.67	    16.401
  62.450        120.00	    18.974
  62.500        137.33	    20.298
  62.550        183.00	    23.431
  62.600        237.67	    26.702
  62.650        308.00	    30.397
  62.700        335.00	    31.702
  62.750        384.33	    33.956
  62.800        434.67	    36.111
  62.850        407.00	    34.943
  62.900        411.00	    35.114
  62.950        414.00	    35.242
  63.000        387.33	    34.088
  63.050        340.67	    31.969
  63.100        288.67	    29.428
  63.150        235.33	    26.571
  63.200        199.33	    24.454
  63.250        152.00	    21.354
  63.300        117.67	    18.788
  63.350         81.67	    15.652
  63.400         66.33	    14.107
  63.450         50.33	    12.288
  63.500         50.67	    12.329
  63.550         45.00	    11.619
  63.600         44.33	    11.533
  63.650         38.00	    10.677
  63.700         36.00	    10.392
  63.750         31.00	     9.644
  63.800         35.67	    10.344
  63.850         25.33	     8.718
  63.900         35.33	    10.296
  63.950         29.00	     9.327
  64.000         36.00	    10.392
  64.050         28.67	     9.274
  64.100         29.00	     9.327
  64.150         29.33	     9.381
  64.200         36.67	    10.488
  64.250         27.67	     9.110
  64.300         37.33	    10.583
  64.350         30.67	     9.592
  64.400         35.33	    10.296
  64.450         38.00	    10.677
  64.500         41.67	    11.180
  64.550         41.33	    11.136
  64.600         58.33	    13.229
  64.650         64.00	    13.856
  64.700         77.67	    15.264
  64.750        104.00	    17.664
  64.800        116.67	    18.708
  64.850        149.33	    21.166
  64.900        165.33	    22.271
  64.950        169.67	    22.561
  65.000        180.33	    23.259
  65.050        163.00	    22.113
  65.100        154.00	    21.494
  65.150        121.67	    19.105
  65.200        105.67	    17.804
  65.250         91.67	    16.583
  65.300         88.00	    16.248
  65.350         63.67	    13.820
  65.400         57.67	    13.153
  65.450         45.00	    11.619
  65.500         38.00	    10.677
  65.550         40.00	    10.954
  65.600         40.67	    11.045
  65.650         45.00	    11.619
  65.700         42.33	    11.269
  65.750         39.33	    10.863
  65.800         40.33	    11.000
  65.850         37.67	    10.630
  65.900         32.67	     9.899
  65.950         26.67	     8.944
  66.000         29.67	     9.434
  66.050         32.67	     9.899
  66.100         26.67	     8.944
  66.150         29.33	     9.381
  66.200         22.00	     8.124
  66.250         21.33	     8.000
  66.300         24.00	     8.485
  66.350         23.00	     8.307
  66.400         26.33	     8.888
  66.450         27.00	     9.000
  66.500         25.00	     8.660
  66.550         31.67	     9.747
  66.600         18.00	     7.348
  66.650         21.67	     8.062
  66.700         21.00	     7.937
  66.750         20.33	     7.810
  66.800         24.33	     8.544
  66.850         27.67	     9.110
  66.900         29.67	     9.434
  66.950         22.00	     8.124
  67.000         28.67	     9.274
  67.050         23.33	     8.367
  67.100         32.00	     9.798
  67.150         24.67	     8.602
  67.200         25.67	     8.775
  67.250         24.00	     8.485
  67.300         22.00	     8.124
  67.350         25.00	     8.660
  67.400         27.00	     9.000
  67.450         26.00	     8.832
  67.500         24.33	     8.544
  67.550         26.33	     8.888
  67.600         20.33	     7.810
  67.650         26.00	     8.832
  67.700         25.33	     8.718
  67.750         21.67	     8.062
  67.800         21.00	     7.937
  67.850         20.67	     7.874
  67.900         24.67	     8.602
  67.950         23.33	     8.367
  68.000         26.67	     8.944
  68.050         28.00	     9.165
  68.100         23.67	     8.426
  68.150         26.33	     8.888
  68.200         25.67	     8.775
  68.250         20.33	     7.810
  68.300         26.33	     8.888
  68.350         26.00	     8.832
  68.400         31.00	     9.644
  68.450         34.67	    10.198
  68.500         33.67	    10.050
  68.550         46.33	    11.790
  68.600         47.67	    11.958
  68.650         70.67	    14.560
  68.700         92.67	    16.673
  68.750        112.33	    18.358
  68.800        115.33	    18.601
  68.850        121.00	    19.053
  68.900        151.33	    21.307
  68.950        167.33	    22.405
  69.000        157.00	    21.703
  69.050        154.00	    21.494
  69.100        144.00	    20.785
  69.150        128.67	    19.647
  69.200        104.00	    17.664
  69.250         78.33	    15.330
  69.300         69.67	    14.457
  69.350         57.67	    13.153
  69.400         50.67	    12.329
  69.450         33.67	    10.050
  69.500         34.33	    10.149
  69.550         30.33	     9.539
  69.600         27.00	     9.000
  69.650         24.00	     8.485
  69.700         34.33	    10.149
  69.750         32.67	     9.899
  69.800         38.00	    10.677
  69.850         33.33	    10.000
  69.900         40.67	    11.045
  69.950         53.33	    12.649
  70.000         50.67	    12.329
  70.050         60.67	    13.491
  70.100         63.33	    13.784
  70.150         79.67	    15.460
  70.200         91.33	    16.553
  70.250        100.00	    17.321
  70.300        119.33	    18.921
  70.350        123.00	    19.209
  70.400        146.67	    20.976
  70.450        147.00	    21.000
  70.500        163.33	    22.136
  70.550        167.33	    22.405
  70.600        166.33	    22.338
  70.650        172.00	    22.716
  70.700        144.00	    20.785
  70.750        147.33	    21.024
  70.800        127.00	    19.519
  70.850        113.00	    18.412
  70.900         99.33	    17.263
  70.950         83.33	    15.811
  71.000         76.00	    15.100
  71.050         76.67	    15.166
  71.100         67.00	    14.177
  71.150         48.33	    12.042
  71.200         51.00	    12.369
  71.250         43.67	    11.446
  71.300         39.33	    10.863
  71.350         37.00	    10.536
  71.400         35.00	    10.247
  71.450         30.67	     9.592
  71.500         36.00	    10.392
  71.550         37.67	    10.630
  71.600         38.67	    10.770
  71.650         37.67	    10.630
  71.700         31.67	     9.747
  71.750         32.67	     9.899
  71.800         35.00	    10.247
  71.850         35.33	    10.296
  71.900         36.33	    10.440
  71.950         30.67	     9.592
  72.000         34.00	    10.100
  72.050         37.67	    10.630
  72.100         43.00	    11.358
  72.150         41.33	    11.136
  72.200         38.00	    10.677
  72.250         32.00	     9.798
  72.300         41.33	    11.136
  72.350         42.33	    11.269
  72.400         44.67	    11.576
  72.450         42.33	    11.269
  72.500         38.67	    10.770
  72.550         33.67	    10.050
  72.600         35.00	    10.247
  72.650         39.33	    10.863
  72.700         42.67	    11.314
  72.750         31.67	     9.747
  72.800         36.33	    10.440
  72.850         35.33	    10.296
  72.900         32.00	     9.798
  72.950         31.00	     9.644
  73.000         33.67	    10.050
  73.050         32.00	     9.798
  73.100         41.00	    11.091
  73.150         35.67	    10.344
  73.200         41.33	    11.136
  73.250         37.00	    10.536
  73.300         42.00	    11.225
  73.350         37.67	    10.630
  73.400         43.67	    11.446
  73.450         41.67	    11.180
  73.500         44.33	    11.533
  73.550         44.00	    11.489
  73.600         50.33	    12.288
  73.650         49.33	    12.166
  73.700         57.67	    13.153
  73.750         50.00	    12.247
  73.800         62.67	    13.711
  73.850         68.00	    14.283
  73.900         83.33	    15.811
  73.950         94.67	    16.852
  74.000         98.33	    17.176
  74.050         92.33	    16.643
  74.100         88.67	    16.310
  74.150         95.67	    16.941
  74.200         73.33	    14.832
  74.250         80.67	    15.556
  74.300         70.67	    14.560
  74.350         65.67	    14.036
  74.400         71.67	    14.663
  74.450         74.33	    14.933
  74.500         75.67	    15.067
  74.550         87.33	    16.186
  74.600        100.67	    17.378
  74.650        106.00	    17.833
  74.700        105.33	    17.776
  74.750         95.67	    16.941
  74.800        102.00	    17.493
  74.850        108.00	    18.000
  74.900         94.00	    16.793
  74.950         79.67	    15.460
  75.000         66.33	    14.107
  75.050         61.33	    13.565
  75.100         57.67	    13.153
  75.150         54.00	    12.728
  75.200         54.33	    12.767
  75.250         51.33	    12.410
  75.300         47.33	    11.916
  75.350         46.33	    11.790
  75.400         53.33	    12.649
  75.450         60.33	    13.454
  75.500         61.67	    13.601
  75.550         58.33	    13.229
  75.600         74.67	    14.967
  75.650         95.33	    16.912
  75.700        100.33	    17.349
  75.750        132.00	    19.900
  75.800        155.00	    21.564
  75.850        180.00	    23.238
  75.900        231.33	    26.344
  75.950        278.00	    28.879
  76.000        314.33	    30.708
  76.050        329.00	    31.417
  76.100        394.00	    34.380
  76.150        415.67	    35.313
  76.200        399.67	    34.627
  76.250        398.00	    34.554
  76.300        333.33	    31.623
  76.350        305.67	    30.282
  76.400        269.00	    28.408
  76.450        230.00	    26.268
  76.500        192.67	    24.042
  76.550        155.67	    21.610
  76.600        129.33	    19.698
  76.650        114.33	    18.520
  76.700        102.00	    17.493
  76.750        109.00	    18.083
  76.800        105.00	    17.748
  76.850        111.33	    18.276
  76.900        137.33	    20.298
  76.950        158.00	    21.772
  77.000        181.67	    23.345
  77.050        233.33	    26.458
  77.100        256.67	    27.749
  77.150        276.67	    28.810
  77.200        288.33	    29.411
  77.250        293.00	    29.648
  77.300        280.00	    28.983
  77.350        282.00	    29.086
  77.400        254.67	    27.641
  77.450        224.67	    25.962
  77.500        203.67	    24.718
  77.550        163.67	    22.159
  77.600        142.00	    20.640
  77.650        129.67	    19.723
  77.700         95.67	    16.941
  77.750         86.67	    16.125
  77.800         71.00	    14.595
  77.850         61.67	    13.601
  77.900         64.00	    13.856
  77.950         59.33	    13.342
  78.000         56.00	    12.961
  78.050         52.00	    12.490
  78.100         52.67	    12.570
  78.150         50.33	    12.288
  78.200         53.00	    12.610
  78.250         58.67	    13.266
  78.300         44.00	    11.489
  78.350         46.67	    11.832
  78.400         42.33	    11.269
  78.450         38.67	    10.770
  78.500         35.33	    10.296
  78.550         44.33	    11.533
  78.600         45.67	    11.705
  78.650         44.33	    11.533
  78.700         37.00	    10.536
  78.750         38.33	    10.724
  78.800         32.00	     9.798
  78.850         33.33	    10.000
  78.900         35.67	    10.344
  78.950         27.00	     9.000
  79.000         25.33	     8.718
  79.050         29.00	     9.327
  79.100         28.00	     9.165
  79.150         34.33	    10.149
  79.200         26.67	     8.944
  79.250         30.67	     9.592
  79.300         27.67	     9.110
  79.350         23.33	     8.367
  79.400         28.00	     9.165
  79.450         25.33	     8.718
  79.500         25.00	     8.660
  79.550         23.33	     8.367
  79.600         22.67	     8.246
  79.650         28.33	     9.220
  79.700         28.67	     9.274
  79.750         29.67	     9.434
  79.800         28.00	     9.165
  79.850         29.67	     9.434
  79.900         28.33	     9.220
  79.950         25.00	     8.660
  80.000         30.67	     9.592
  80.050         23.33	     8.367
  80.100         31.67	     9.747
  80.150         24.00	     8.485
  80.200         20.00	     7.746
  80.250         29.33	     9.381
  80.300         20.00	     7.746
  80.350         22.67	     8.246
  80.400         25.00	     8.660
  80.450         21.67	     8.062
  80.500         24.33	     8.544
  80.550         20.33	     7.810
  80.600         21.33	     8.000
  80.650         22.00	     8.124
  80.700         25.33	     8.718
  80.750         23.00	     8.307
  80.800         23.33	     8.367
  80.850         26.33	     8.888
  80.900         24.67	     8.602
  80.950         25.00	     8.660
  81.000         19.67	     7.681
  81.050         32.67	     9.899
  81.100         26.67	     8.944
  81.150         30.33	     9.539
  81.200         32.33	     9.849
  81.250         35.67	    10.344
  81.300         28.67	     9.274
  81.350         32.67	     9.899
  81.400         39.00	    10.817
  81.450         38.00	    10.677
  81.500         38.33	    10.724
  81.550         45.33	    11.662
  81.600         50.00	    12.247
  81.650         52.00	    12.490
  81.700         66.67	    14.142
  81.750         76.33	    15.133
  81.800         76.00	    15.100
  81.850         84.00	    15.875
  81.900         92.00	    16.613
  81.950        130.33	    19.774
  82.000        171.00	    22.650
  82.050        199.33	    24.454
  82.100        224.33	    25.942
  82.150        252.33	    27.514
  82.200        247.33	    27.240
  82.250        288.00	    29.394
  82.300        287.33	    29.360
  82.350        273.00	    28.618
  82.400        248.67	    27.313
  82.450        230.00	    26.268
  82.500        198.67	    24.413
  82.550        152.00	    21.354
  82.600        138.67	    20.396
  82.650        104.33	    17.692
  82.700         79.00	    15.395
  82.750         68.00	    14.283
  82.800         57.67	    13.153
  82.850         41.67	    11.180
  82.900         36.67	    10.488
  82.950         33.33	    10.000
  83.000         34.67	    10.198
  83.050         24.00	     8.485
  83.100         29.67	     9.434
  83.150         26.67	     8.944
  83.200         27.00	     9.000
  83.250         28.33	     9.220
  83.300         24.33	     8.544
  83.350         22.00	     8.124
  83.400         21.33	     8.000
  83.450         27.33	     9.055
  83.500         24.00	     8.485
  83.550         27.00	     9.000
  83.600         25.33	     8.718
  83.650         27.00	     9.000
  83.700         32.67	     9.899
  83.750         34.33	    10.149
  83.800         42.33	    11.269
  83.850         52.33	    12.530
  83.900         62.33	    13.675
  83.950         75.67	    15.067
  84.000         67.00	    14.177
  84.050         79.67	    15.460
  84.100         84.67	    15.937
  84.150         90.67	    16.492
  84.200         92.00	    16.613
  84.250         84.00	    15.875
  84.300         84.00	    15.875
  84.350         66.67	    14.142
  84.400         53.00	    12.610
  84.450         51.33	    12.410
  84.500         35.67	    10.344
  84.550         36.00	    10.392
  84.600         31.33	     9.695
  84.650         23.67	     8.426
  84.700         31.33	     9.695
  84.750         25.00	     8.660
  84.800         25.67	     8.775
  84.850         19.33	     7.616
  84.900         19.00	     7.550
  84.950         19.67	     7.681
  85.000         16.00	     6.928
  85.050         15.33	     6.782
  85.100         18.33	     7.416
  85.150         19.67	     7.681
  85.200         19.33	     7.616
  85.250         17.67	     7.280
  85.300         16.00	     6.928
  85.350         22.00	     8.124
  85.400         18.33	     7.416
  85.450         18.67	     7.483
  85.500         14.33	     6.557
  85.550         18.00	     7.348
  85.600         20.67	     7.874
  85.650         18.67	     7.483
  85.700         19.67	     7.681
  85.750         13.33	     6.325
  85.800         18.67	     7.483
  85.850         20.33	     7.810
  85.900         13.33	     6.325
  85.950         20.33	     7.810
  86.000         21.33	     8.000
  86.050         22.67	     8.246
  86.100         23.33	     8.367
  86.150         24.33	     8.544
  86.200         29.33	     9.381
  86.250         23.67	     8.426
  86.300         30.33	     9.539
  86.350         38.67	    10.770
  86.400         48.67	    12.083
  86.450         53.00	    12.610
  86.500         57.33	    13.115
  86.550         70.33	    14.526
  86.600         68.33	    14.318
  86.650         72.00	    14.697
  86.700         74.67	    14.967
  86.750         72.00	    14.697
  86.800         61.33	    13.565
  86.850         61.00	    13.528
  86.900         56.67	    13.038
  86.950         50.33	    12.288
  87.000         49.67	    12.207
  87.050         42.67	    11.314
  87.100         34.67	    10.198
  87.150         26.33	     8.888
  87.200         27.00	     9.000
  87.250         25.67	     8.775
  87.300         19.00	     7.550
  87.350         24.33	     8.544
  87.400         20.67	     7.874
  87.450         21.00	     7.937
  87.500         17.67	     7.280
  87.550         15.67	     6.856
  87.600         20.00	     7.746
  87.650         13.33	     6.325
  87.700         16.00	     6.928
  87.750         19.00	     7.550
  87.800         14.00	     6.481
  87.850         14.00	     6.481
  87.900         18.33	     7.416
  87.950         15.33	     6.782
  88.000         18.33	     7.416
  88.050         13.33	     6.325
  88.100         17.00	     7.141
  88.150         13.33	     6.325
  88.200         18.33	     7.416
  88.250         16.00	     6.928
  88.300         14.67	     6.633
  88.350         14.00	     6.481
  88.400         15.00	     6.708
  88.450         14.00	     6.481
  88.500         12.33	     6.083
  88.550         12.33	     6.083
  88.600         14.00	     6.481
  88.650         16.00	     6.928
  88.700         12.00	     6.000
  88.750         15.00	     6.708
  88.800         12.00	     6.000
  88.850         21.00	     7.937
  88.900         14.33	     6.557
  88.950         16.33	     7.000
  89.000         14.00	     6.481
  89.050         14.67	     6.633
  89.100         17.33	     7.211
  89.150         12.67	     6.164
  89.200         13.67	     6.403
  89.250         11.00	     5.745
  89.300         11.33	     5.831
  89.350         14.00	     6.481
  89.400         11.00	     5.745
  89.450         14.33	     6.557
  89.500         15.33	     6.782
  89.550         15.67	     6.856
  89.600         10.67	     5.657
  89.650         15.00	     6.708
  89.700         16.33	     7.000
  89.750         14.33	     6.557
  89.800         14.33	     6.557
  89.850         11.00	     5.745
  89.900         15.33	     6.782
  89.950         17.00	     7.141
  90.000         16.00	     6.928
  90.050         16.00	     6.928
  90.100          9.67	     5.385
  90.150         10.00	     5.477
  90.200         16.00	     6.928
  90.250         11.33	     5.831
  90.300         13.67	     6.403
  90.350         12.33	     6.083
  90.400         10.33	     5.568
  90.450         14.00	     6.481
  90.500         13.33	     6.325
  90.550         17.67	     7.280
  90.600         12.67	     6.164
  90.650         14.67	     6.633
  90.700         15.33	     6.782
  90.750         13.67	     6.403
  90.800         15.67	     6.856
  90.850         13.33	     6.325
  90.900         14.67	     6.633
  90.950         17.00	     7.141
  91.000         15.33	     6.782
  91.050         16.67	     7.071
  91.100         16.00	     6.928
  91.150         17.33	     7.211
  91.200         21.00	     7.937
  91.250         17.67	     7.280
  91.300         22.00	     8.124
  91.350         21.67	     8.062
  91.400         21.67	     8.062
  91.450         22.00	     8.124
  91.500         21.33	     8.000
  91.550         23.33	     8.367
  91.600         25.67	     8.775
  91.650         18.67	     7.483
  91.700         25.00	     8.660
  91.750         23.00	     8.307
  91.800         17.33	     7.211
  91.850         18.33	     7.416
  91.900         21.67	     8.062
  91.950         22.33	     8.185
  92.000         15.00	     6.708
  92.050         21.33	     8.000
  92.100         17.00	     7.141
  92.150         26.00	     8.832
  92.200         15.33	     6.782
  92.250         20.67	     7.874
  92.300         20.67	     7.874
  92.350         22.67	     8.246
  92.400         21.33	     8.000
  92.450         26.33	     8.888
  92.500         27.33	     9.055
  92.550         24.00	     8.485
  92.600         27.67	     9.110
  92.650         24.00	     8.485
  92.700         27.00	     9.000
  92.750         25.00	     8.660
  92.800         31.00	     9.644
  92.850         26.67	     8.944
  92.900         25.00	     8.660
  92.950         21.67	     8.062
  93.000         31.00	     9.644
  93.050         25.33	     8.718
  93.100         26.33	     8.888
  93.150         17.33	     7.211
  93.200         18.67	     7.483
  93.250         22.67	     8.246
  93.300         24.00	     8.485
  93.350         22.67	     8.246
  93.400         20.00	     7.746
  93.450         24.67	     8.602
  93.500         21.33	     8.000
  93.550         15.67	     6.856
  93.600         17.00	     7.141
  93.650         18.67	     7.483
  93.700         14.33	     6.557
  93.750         14.00	     6.481
  93.800         16.67	     7.071
  93.850         12.67	     6.164
  93.900         15.00	     6.708
  93.950         14.67	     6.633
  94.000         12.33	     6.083
  94.050         12.00	     6.000
  94.100         12.67	     6.164
  94.150         13.33	     6.325
  94.200         13.67	     6.403
  94.250         14.33	     6.557
  94.300         13.33	     6.325
  94.350         15.33	     6.782
  94.400         14.33	     6.557
  94.450         12.67	     6.164
  94.500         13.67	     6.403
  94.550         15.00	     6.708
  94.600         12.33	     6.083
  94.650         14.67	     6.633
  94.700         13.00	     6.245
  94.750         11.33	     5.831
  94.800         10.67	     5.657
  94.850         14.67	     6.633
  94.900         15.00	     6.708
  94.950         14.67	     6.633
  95.000         11.00	     5.745
  95.050         15.33	     6.782
  95.100         15.33	     6.782
  95.150         16.33	     7.000
  95.200         19.00	     7.550
  95.250         12.33	     6.083
  95.300         15.00	     6.708
  95.350         10.00	     5.477
  95.400         12.33	     6.083
  95.450         11.33	     5.831
  95.500         12.67	     6.164
  95.550          8.67	     5.099
  95.600         15.67	     6.856
  95.650         10.67	     5.657
  95.700         14.67	     6.633
  95.750         12.67	     6.164
  95.800         15.33	     6.782
  95.850         13.33	     6.325
  95.900         12.67	     6.164
  95.950         13.00	     6.245
  96.000         13.00	     6.245
  96.050         11.00	     5.745
  96.100         13.67	     6.403
  96.150         16.67	     7.071
  96.200         12.00	     6.000
  96.250         14.67	     6.633
  96.300         12.67	     6.164
  96.350         16.67	     7.071
  96.400         14.33	     6.557
  96.450         11.33	     5.831
  96.500         18.00	     7.348
  96.550         11.67	     5.916
  96.600         14.00	     6.481
  96.650         14.67	     6.633
  96.700         14.00	     6.481
  96.750         15.00	     6.708
  96.800         14.33	     6.557
  96.850         11.00	     5.745
  96.900         16.00	     6.928
  96.950         13.67	     6.403
  97.000         16.67	     7.071
  97.050         14.33	     6.557
  97.100         16.33	     7.000
  97.150         16.00	     6.928
  97.200         14.00	     6.481
  97.250         11.33	     5.831
  97.300         10.33	     5.568
  97.350         13.67	     6.403
  97.400         12.33	     6.083
  97.450         10.67	     5.657
  97.500         16.00	     6.928
  97.550         15.33	     6.782
  97.600          9.67	     5.385
  97.650         17.33	     7.211
  97.700         12.33	     6.083
  97.750         14.67	     6.633
  97.800         12.67	     6.164
  97.850         11.67	     5.916
  97.900         11.33	     5.831
  97.950         17.00	     7.141
  98.000         11.33	     5.831
  98.050         14.33	     6.557
  98.100         12.33	     6.083
  98.150         15.67	     6.856
  98.200         13.00	     6.245
  98.250         12.00	     6.000
  98.300         12.67	     6.164
  98.350         18.67	     7.483
  98.400         14.33	     6.557
  98.450         14.00	     6.481
  98.500         14.33	     6.557
  98.550         14.33	     6.557
  98.600         13.00	     6.245
  98.650         14.00	     6.481
  98.700         14.33	     6.557
  98.750         14.67	     6.633
  98.800         15.00	     6.708
  98.850         19.33	     7.616
  98.900         15.67	     6.856
  98.950         16.00	     6.928
  99.000         13.67	     6.403
  99.050         15.67	     6.856
  99.100         17.00	     7.141
  99.150         15.00	     6.708
  99.200         16.67	     7.071
  99.250         12.67	     6.164
  99.300         14.00	     6.481
  99.350         15.33	     6.782
  99.400         15.00	     6.708
  99.450         18.67	     7.483
  99.500         16.00	     6.928
  99.550         15.67	     6.856
  99.600         18.33	     7.416
  99.650         13.67	     6.403
  99.700         16.33	     7.000
  99.750         17.00	     7.141
  99.800         15.67	     6.856
  99.850         17.00	     7.141
  99.900         15.00	     6.708
  99.950         16.00	     6.928
 100.000         17.33	     7.211
 100.050         18.00	     7.348
 100.100         18.00	     7.348
 100.150         14.67	     6.633
 100.200         21.00	     7.937
 100.250         20.33	     7.810
 100.300         20.67	     7.874
 100.350         19.33	     7.616
 100.400         23.67	     8.426
 100.450         21.67	     8.062
 100.500         19.67	     7.681
 100.550         23.67	     8.426
 100.600         25.00	     8.660
 100.650         26.33	     8.888
 100.700         24.00	     8.485
 100.750         22.00	     8.124
 100.800         23.00	     8.307
 100.850         22.67	     8.246
 100.900         28.00	     9.165
 100.950         22.00	     8.124
 101.000         24.00	     8.485
 101.050         22.00	     8.124
 101.100         26.00	     8.832
 101.150         25.00	     8.660
 101.200         22.00	     8.124
 101.250         20.00	     7.746
 101.300         20.00	     7.746
 101.350         24.67	     8.602
 101.400         21.00	     7.937
 101.450         24.67	     8.602
 101.500         27.33	     9.055
 101.550         27.33	     9.055
 101.600         23.33	     8.367
 101.650         31.00	     9.644
 101.700         36.00	    10.392
 101.750         30.00	     9.487
 101.800         37.33	    10.583
 101.850         47.00	    11.874
 101.900         40.00	    10.954
 101.950         49.00	    12.124
 102.000         61.67	    13.601
 102.050         61.00	    13.528
 102.100         65.00	    13.964
 102.150         75.33	    15.033
 102.200         75.67	    15.067
 102.250         76.00	    15.100
 102.300         82.33	    15.716
 102.350         77.67	    15.264
 102.400         75.00	    15.000
 102.450         73.67	    14.866
 102.500         67.00	    14.177
 102.550         67.00	    14.177
 102.600         51.67	    12.450
 102.650         59.00	    13.304
 102.700         48.67	    12.083
 102.750         41.67	    11.180
 102.800         38.67	    10.770
 102.850         40.33	    11.000
 102.900         37.33	    10.583
 102.950         31.00	     9.644
 103.000         29.33	     9.381
 103.050         25.67	     8.775
 103.100         23.00	     8.307
 103.150         28.33	     9.220
 103.200         21.67	     8.062
 103.250         25.67	     8.775
 103.300         20.67	     7.874
 103.350         26.67	     8.944
 103.400         19.33	     7.616
 103.450         19.33	     7.616
 103.500         20.33	     7.810
 103.550         23.00	     8.307
 103.600         19.67	     7.681
 103.650         22.67	     8.246
 103.700         17.00	     7.141
 103.750         23.00	     8.307
 103.800         21.00	     7.937
 103.850         23.00	     8.307
 103.900         16.33	     7.000
 103.950         24.67	     8.602
 104.000         20.00	     7.746
 104.050         18.67	     7.483
 104.100         17.67	     7.280
 104.150         19.67	     7.681
 104.200         23.67	     8.426
 104.250         22.00	     8.124
 104.300         22.00	     8.124
 104.350         17.67	     7.280
 104.400         21.00	     7.937
 104.450         23.33	     8.367
 104.500         22.33	     8.185
 104.550         25.67	     8.775
 104.600         24.33	     8.544
 104.650         26.33	     8.888
 104.700         24.67	     8.602
 104.750         25.00	     8.660
 104.800         26.00	     8.832
 104.850         21.67	     8.062
 104.900         27.67	     9.110
 104.950         21.33	     8.000
 105.000         23.67	     8.426
